#\tau = 0.01
#    L    TT             EE             BB             TE             PP             TP             EP          
     2    0.10967E+04    0.27770E-02    0.00000E+00    0.10455E+01    0.48860E-07    0.33160E-02   -0.24536E-05
     3    0.10384E+04    0.11201E-02    0.00000E+00    0.75249E+00    0.59423E-07    0.32619E-02   -0.71212E-06
     4    0.98839E+03    0.43959E-03    0.00000E+00    0.52118E+00    0.68425E-07    0.31501E-02    0.26764E-06
     5    0.95359E+03    0.23100E-03    0.00000E+00    0.39215E+00    0.76218E-07    0.30242E-02    0.55954E-06
     6    0.93093E+03    0.17635E-03    0.00000E+00    0.34640E+00    0.83000E-07    0.28998E-02    0.50850E-06
     7    0.91699E+03    0.18303E-03    0.00000E+00    0.35628E+00    0.88955E-07    0.27824E-02    0.38229E-06
     8    0.90910E+03    0.23351E-03    0.00000E+00    0.39933E+00    0.94211E-07    0.26690E-02    0.28055E-06
     9    0.90603E+03    0.32627E-03    0.00000E+00    0.46023E+00    0.98876E-07    0.25571E-02    0.19704E-06
    10    0.90631E+03    0.46427E-03    0.00000E+00    0.53217E+00    0.10302E-06    0.24489E-02    0.11722E-06
    11    0.90890E+03    0.65127E-03    0.00000E+00    0.61194E+00    0.10673E-06    0.23498E-02    0.57100E-07
    12    0.91491E+03    0.99765E-03    0.00000E+00    0.69808E+00    0.11004E-06    0.22599E-02    0.35538E-07
    13    0.92255E+03    0.11962E-02    0.00000E+00    0.78771E+00    0.11299E-06    0.21772E-02    0.24230E-07
    14    0.93069E+03    0.15362E-02    0.00000E+00    0.87691E+00    0.11562E-06    0.20995E-02   -0.86626E-08
    15    0.93984E+03    0.20062E-02    0.00000E+00    0.96664E+00    0.11798E-06    0.20252E-02   -0.64569E-07
    16    0.95070E+03    0.25137E-02    0.00000E+00    0.10590E+01    0.12008E-06    0.19533E-02   -0.13298E-06
    17    0.96329E+03    0.31618E-02    0.00000E+00    0.11524E+01    0.12195E-06    0.18848E-02   -0.18507E-06
    18    0.97671E+03    0.39017E-02    0.00000E+00    0.12460E+01    0.12363E-06    0.18207E-02   -0.19945E-06
    19    0.99173E+03    0.47294E-02    0.00000E+00    0.13393E+01    0.12511E-06    0.17606E-02   -0.20073E-06
    20    0.10066E+04    0.56974E-02    0.00000E+00    0.14288E+01    0.12642E-06    0.17037E-02   -0.21891E-06
    21    0.10218E+04    0.67730E-02    0.00000E+00    0.15146E+01    0.12757E-06    0.16499E-02   -0.26146E-06
    22    0.10376E+04    0.79888E-02    0.00000E+00    0.15964E+01    0.12857E-06    0.15990E-02   -0.32547E-06
    23    0.10538E+04    0.93652E-02    0.00000E+00    0.16741E+01    0.12945E-06    0.15506E-02   -0.38881E-06
    24    0.10705E+04    0.10888E-01    0.00000E+00    0.17477E+01    0.13021E-06    0.15044E-02   -0.43034E-06
    25    0.10875E+04    0.12586E-01    0.00000E+00    0.18163E+01    0.13085E-06    0.14603E-02   -0.45122E-06
    26    0.11049E+04    0.14460E-01    0.00000E+00    0.18799E+01    0.13140E-06    0.14183E-02   -0.45964E-06
    27    0.11227E+04    0.16509E-01    0.00000E+00    0.19369E+01    0.13185E-06    0.13784E-02   -0.47000E-06
    28    0.11408E+04    0.18755E-01    0.00000E+00    0.19866E+01    0.13221E-06    0.13404E-02   -0.49479E-06
    29    0.11594E+04    0.21202E-01    0.00000E+00    0.20289E+01    0.13250E-06    0.13042E-02   -0.53318E-06
    30    0.11781E+04    0.23859E-01    0.00000E+00    0.20624E+01    0.13270E-06    0.12697E-02   -0.58005E-06
    31    0.11971E+04    0.26740E-01    0.00000E+00    0.20873E+01    0.13282E-06    0.12367E-02   -0.62635E-06
    32    0.12164E+04    0.29850E-01    0.00000E+00    0.21038E+01    0.13289E-06    0.12049E-02   -0.66386E-06
    33    0.12362E+04    0.33193E-01    0.00000E+00    0.21108E+01    0.13290E-06    0.11743E-02   -0.69150E-06
    34    0.12561E+04    0.36784E-01    0.00000E+00    0.21081E+01    0.13285E-06    0.11451E-02   -0.71081E-06
    35    0.12763E+04    0.40626E-01    0.00000E+00    0.20963E+01    0.13275E-06    0.11171E-02   -0.72687E-06
    36    0.12965E+04    0.44729E-01    0.00000E+00    0.20747E+01    0.13260E-06    0.10900E-02   -0.74486E-06
    37    0.13169E+04    0.49098E-01    0.00000E+00    0.20409E+01    0.13241E-06    0.10641E-02   -0.76699E-06
    38    0.13377E+04    0.53742E-01    0.00000E+00    0.19947E+01    0.13219E-06    0.10394E-02   -0.79386E-06
    39    0.13590E+04    0.58661E-01    0.00000E+00    0.19367E+01    0.13192E-06    0.10159E-02   -0.82246E-06
    40    0.13805E+04    0.63859E-01    0.00000E+00    0.18674E+01    0.13161E-06    0.99325E-03   -0.84888E-06
    41    0.14022E+04    0.69344E-01    0.00000E+00    0.17870E+01    0.13127E-06    0.97131E-03   -0.87014E-06
    42    0.14239E+04    0.75129E-01    0.00000E+00    0.16943E+01    0.13090E-06    0.95005E-03   -0.88686E-06
    43    0.14458E+04    0.81226E-01    0.00000E+00    0.15880E+01    0.13050E-06    0.92948E-03   -0.90053E-06
    44    0.14677E+04    0.87632E-01    0.00000E+00    0.14676E+01    0.13008E-06    0.90960E-03   -0.91265E-06
    45    0.14900E+04    0.94354E-01    0.00000E+00    0.13327E+01    0.12962E-06    0.89044E-03   -0.92472E-06
    46    0.15126E+04    0.10140E+00    0.00000E+00    0.11812E+01    0.12915E-06    0.87198E-03   -0.93802E-06
    47    0.15353E+04    0.10877E+00    0.00000E+00    0.10142E+01    0.12865E-06    0.85420E-03   -0.95300E-06
    48    0.15582E+04    0.11646E+00    0.00000E+00    0.83609E+00    0.12814E-06    0.83704E-03   -0.96990E-06
    49    0.15813E+04    0.12444E+00    0.00000E+00    0.65077E+00    0.12760E-06    0.82047E-03   -0.98897E-06
    50    0.16048E+04    0.13268E+00    0.00000E+00    0.45535E+00    0.12705E-06    0.80444E-03   -0.10105E-05
    51    0.16285E+04    0.14116E+00    0.00000E+00    0.24542E+00    0.12649E-06    0.78891E-03   -0.10344E-05
    52    0.16526E+04    0.14995E+00    0.00000E+00    0.16190E-01    0.12591E-06    0.77386E-03   -0.10598E-05
    53    0.16767E+04    0.15922E+00    0.00000E+00   -0.23537E+00    0.12532E-06    0.75929E-03   -0.10856E-05
    54    0.17008E+04    0.16895E+00    0.00000E+00   -0.50431E+00    0.12472E-06    0.74518E-03   -0.11108E-05
    55    0.17251E+04    0.17912E+00    0.00000E+00   -0.78558E+00    0.12410E-06    0.73152E-03   -0.11340E-05
    56    0.17497E+04    0.18960E+00    0.00000E+00   -0.10804E+01    0.12348E-06    0.71829E-03   -0.11545E-05
    57    0.17747E+04    0.20028E+00    0.00000E+00   -0.13886E+01    0.12285E-06    0.70548E-03   -0.11722E-05
    58    0.17999E+04    0.21115E+00    0.00000E+00   -0.17112E+01    0.12220E-06    0.69306E-03   -0.11873E-05
    59    0.18254E+04    0.22226E+00    0.00000E+00   -0.20488E+01    0.12155E-06    0.68102E-03   -0.12000E-05
    60    0.18511E+04    0.23366E+00    0.00000E+00   -0.24010E+01    0.12089E-06    0.66933E-03   -0.12104E-05
    61    0.18772E+04    0.24544E+00    0.00000E+00   -0.27669E+01    0.12023E-06    0.65798E-03   -0.12189E-05
    62    0.19033E+04    0.25758E+00    0.00000E+00   -0.31476E+01    0.11956E-06    0.64695E-03   -0.12259E-05
    63    0.19295E+04    0.27005E+00    0.00000E+00   -0.35441E+01    0.11888E-06    0.63624E-03   -0.12320E-05
    64    0.19562E+04    0.28286E+00    0.00000E+00   -0.39575E+01    0.11820E-06    0.62583E-03   -0.12381E-05
    65    0.19829E+04    0.29598E+00    0.00000E+00   -0.43885E+01    0.11751E-06    0.61571E-03   -0.12445E-05
    66    0.20100E+04    0.30935E+00    0.00000E+00   -0.48353E+01    0.11683E-06    0.60588E-03   -0.12520E-05
    67    0.20373E+04    0.32296E+00    0.00000E+00   -0.52952E+01    0.11614E-06    0.59633E-03   -0.12604E-05
    68    0.20651E+04    0.33686E+00    0.00000E+00   -0.57667E+01    0.11545E-06    0.58703E-03   -0.12699E-05
    69    0.20930E+04    0.35100E+00    0.00000E+00   -0.62481E+01    0.11475E-06    0.57797E-03   -0.12802E-05
    70    0.21213E+04    0.36542E+00    0.00000E+00   -0.67412E+01    0.11406E-06    0.56914E-03   -0.12914E-05
    71    0.21497E+04    0.38011E+00    0.00000E+00   -0.72485E+01    0.11337E-06    0.56053E-03   -0.13032E-05
    72    0.21784E+04    0.39504E+00    0.00000E+00   -0.77711E+01    0.11267E-06    0.55213E-03   -0.13155E-05
    73    0.22072E+04    0.41017E+00    0.00000E+00   -0.83093E+01    0.11198E-06    0.54395E-03   -0.13277E-05
    74    0.22362E+04    0.42550E+00    0.00000E+00   -0.88621E+01    0.11128E-06    0.53599E-03   -0.13396E-05
    75    0.22657E+04    0.44102E+00    0.00000E+00   -0.94277E+01    0.11059E-06    0.52825E-03   -0.13508E-05
    76    0.22954E+04    0.45675E+00    0.00000E+00   -0.10005E+02    0.10989E-06    0.52074E-03   -0.13609E-05
    77    0.23256E+04    0.47267E+00    0.00000E+00   -0.10595E+02    0.10920E-06    0.51344E-03   -0.13698E-05
    78    0.23561E+04    0.48880E+00    0.00000E+00   -0.11197E+02    0.10851E-06    0.50636E-03   -0.13777E-05
    79    0.23869E+04    0.50509E+00    0.00000E+00   -0.11809E+02    0.10781E-06    0.49947E-03   -0.13846E-05
    80    0.24179E+04    0.52155E+00    0.00000E+00   -0.12431E+02    0.10712E-06    0.49276E-03   -0.13904E-05
    81    0.24492E+04    0.53811E+00    0.00000E+00   -0.13064E+02    0.10643E-06    0.48624E-03   -0.13952E-05
    82    0.24808E+04    0.55481E+00    0.00000E+00   -0.13708E+02    0.10574E-06    0.47988E-03   -0.13993E-05
    83    0.25126E+04    0.57160E+00    0.00000E+00   -0.14362E+02    0.10505E-06    0.47367E-03   -0.14028E-05
    84    0.25447E+04    0.58849E+00    0.00000E+00   -0.15023E+02    0.10437E-06    0.46759E-03   -0.14060E-05
    85    0.25770E+04    0.60545E+00    0.00000E+00   -0.15694E+02    0.10369E-06    0.46163E-03   -0.14092E-05
    86    0.26094E+04    0.62248E+00    0.00000E+00   -0.16374E+02    0.10301E-06    0.45576E-03   -0.14124E-05
    87    0.26424E+04    0.63956E+00    0.00000E+00   -0.17060E+02    0.10233E-06    0.45001E-03   -0.14157E-05
    88    0.26753E+04    0.65670E+00    0.00000E+00   -0.17754E+02    0.10166E-06    0.44435E-03   -0.14190E-05
    89    0.27086E+04    0.67388E+00    0.00000E+00   -0.18456E+02    0.10099E-06    0.43881E-03   -0.14221E-05
    90    0.27422E+04    0.69106E+00    0.00000E+00   -0.19164E+02    0.10033E-06    0.43337E-03   -0.14251E-05
    91    0.27760E+04    0.70824E+00    0.00000E+00   -0.19878E+02    0.99665E-07    0.42805E-03   -0.14277E-05
    92    0.28100E+04    0.72539E+00    0.00000E+00   -0.20597E+02    0.99006E-07    0.42283E-03   -0.14300E-05
    93    0.28444E+04    0.74252E+00    0.00000E+00   -0.21321E+02    0.98351E-07    0.41772E-03   -0.14320E-05
    94    0.28789E+04    0.75957E+00    0.00000E+00   -0.22050E+02    0.97699E-07    0.41271E-03   -0.14338E-05
    95    0.29137E+04    0.77655E+00    0.00000E+00   -0.22782E+02    0.97051E-07    0.40781E-03   -0.14352E-05
    96    0.29485E+04    0.79345E+00    0.00000E+00   -0.23519E+02    0.96407E-07    0.40300E-03   -0.14364E-05
    97    0.29838E+04    0.81024E+00    0.00000E+00   -0.24258E+02    0.95767E-07    0.39829E-03   -0.14373E-05
    98    0.30193E+04    0.82691E+00    0.00000E+00   -0.24998E+02    0.95130E-07    0.39367E-03   -0.14379E-05
    99    0.30549E+04    0.84343E+00    0.00000E+00   -0.25742E+02    0.94497E-07    0.38915E-03   -0.14383E-05
   100    0.30909E+04    0.85980E+00    0.00000E+00   -0.26484E+02    0.93868E-07    0.38471E-03   -0.14385E-05
   101    0.31270E+04    0.87607E+00    0.00000E+00   -0.27229E+02    0.93243E-07    0.38036E-03   -0.14384E-05
   102    0.31636E+04    0.89209E+00    0.00000E+00   -0.27973E+02    0.92622E-07    0.37610E-03   -0.14381E-05
   103    0.32002E+04    0.90794E+00    0.00000E+00   -0.28718E+02    0.92005E-07    0.37191E-03   -0.14375E-05
   104    0.32371E+04    0.92362E+00    0.00000E+00   -0.29460E+02    0.91392E-07    0.36781E-03   -0.14368E-05
   105    0.32741E+04    0.93904E+00    0.00000E+00   -0.30201E+02    0.90783E-07    0.36378E-03   -0.14359E-05
   106    0.33114E+04    0.95428E+00    0.00000E+00   -0.30941E+02    0.90178E-07    0.35982E-03   -0.14347E-05
   107    0.33486E+04    0.96919E+00    0.00000E+00   -0.31677E+02    0.89578E-07    0.35594E-03   -0.14334E-05
   108    0.33863E+04    0.98385E+00    0.00000E+00   -0.32410E+02    0.88982E-07    0.35213E-03   -0.14319E-05
   109    0.34241E+04    0.99817E+00    0.00000E+00   -0.33139E+02    0.88390E-07    0.34838E-03   -0.14302E-05
   110    0.34620E+04    0.10122E+01    0.00000E+00   -0.33862E+02    0.87802E-07    0.34470E-03   -0.14284E-05
   111    0.35000E+04    0.10259E+01    0.00000E+00   -0.34581E+02    0.87219E-07    0.34108E-03   -0.14264E-05
   112    0.35383E+04    0.10393E+01    0.00000E+00   -0.35295E+02    0.86641E-07    0.33752E-03   -0.14243E-05
   113    0.35768E+04    0.10523E+01    0.00000E+00   -0.36002E+02    0.86066E-07    0.33402E-03   -0.14220E-05
   114    0.36154E+04    0.10650E+01    0.00000E+00   -0.36702E+02    0.85496E-07    0.33057E-03   -0.14195E-05
   115    0.36542E+04    0.10773E+01    0.00000E+00   -0.37393E+02    0.84931E-07    0.32719E-03   -0.14168E-05
   116    0.36930E+04    0.10892E+01    0.00000E+00   -0.38076E+02    0.84370E-07    0.32386E-03   -0.14140E-05
   117    0.37322E+04    0.11007E+01    0.00000E+00   -0.38750E+02    0.83813E-07    0.32059E-03   -0.14110E-05
   118    0.37715E+04    0.11118E+01    0.00000E+00   -0.39415E+02    0.83261E-07    0.31737E-03   -0.14078E-05
   119    0.38108E+04    0.11226E+01    0.00000E+00   -0.40069E+02    0.82713E-07    0.31421E-03   -0.14044E-05
   120    0.38503E+04    0.11328E+01    0.00000E+00   -0.40711E+02    0.82169E-07    0.31109E-03   -0.14008E-05
   121    0.38897E+04    0.11427E+01    0.00000E+00   -0.41342E+02    0.81630E-07    0.30803E-03   -0.13969E-05
   122    0.39293E+04    0.11521E+01    0.00000E+00   -0.41960E+02    0.81095E-07    0.30501E-03   -0.13929E-05
   123    0.39689E+04    0.11609E+01    0.00000E+00   -0.42566E+02    0.80564E-07    0.30205E-03   -0.13887E-05
   124    0.40086E+04    0.11693E+01    0.00000E+00   -0.43157E+02    0.80037E-07    0.29913E-03   -0.13842E-05
   125    0.40482E+04    0.11772E+01    0.00000E+00   -0.43734E+02    0.79515E-07    0.29626E-03   -0.13795E-05
   126    0.40880E+04    0.11847E+01    0.00000E+00   -0.44297E+02    0.78997E-07    0.29343E-03   -0.13746E-05
   127    0.41277E+04    0.11916E+01    0.00000E+00   -0.44845E+02    0.78484E-07    0.29065E-03   -0.13694E-05
   128    0.41674E+04    0.11981E+01    0.00000E+00   -0.45377E+02    0.77974E-07    0.28791E-03   -0.13640E-05
   129    0.42071E+04    0.12040E+01    0.00000E+00   -0.45892E+02    0.77469E-07    0.28521E-03   -0.13584E-05
   130    0.42469E+04    0.12093E+01    0.00000E+00   -0.46389E+02    0.76969E-07    0.28255E-03   -0.13524E-05
   131    0.42866E+04    0.12141E+01    0.00000E+00   -0.46870E+02    0.76472E-07    0.27993E-03   -0.13463E-05
   132    0.43264E+04    0.12184E+01    0.00000E+00   -0.47332E+02    0.75980E-07    0.27735E-03   -0.13398E-05
   133    0.43660E+04    0.12222E+01    0.00000E+00   -0.47776E+02    0.75492E-07    0.27481E-03   -0.13332E-05
   134    0.44057E+04    0.12254E+01    0.00000E+00   -0.48199E+02    0.75008E-07    0.27230E-03   -0.13262E-05
   135    0.44453E+04    0.12281E+01    0.00000E+00   -0.48603E+02    0.74528E-07    0.26983E-03   -0.13191E-05
   136    0.44848E+04    0.12302E+01    0.00000E+00   -0.48985E+02    0.74052E-07    0.26739E-03   -0.13116E-05
   137    0.45242E+04    0.12318E+01    0.00000E+00   -0.49346E+02    0.73580E-07    0.26499E-03   -0.13040E-05
   138    0.45635E+04    0.12328E+01    0.00000E+00   -0.49686E+02    0.73113E-07    0.26262E-03   -0.12961E-05
   139    0.46026E+04    0.12334E+01    0.00000E+00   -0.50003E+02    0.72649E-07    0.26028E-03   -0.12879E-05
   140    0.46417E+04    0.12333E+01    0.00000E+00   -0.50298E+02    0.72189E-07    0.25797E-03   -0.12796E-05
   141    0.46806E+04    0.12326E+01    0.00000E+00   -0.50570E+02    0.71734E-07    0.25569E-03   -0.12710E-05
   142    0.47194E+04    0.12315E+01    0.00000E+00   -0.50818E+02    0.71282E-07    0.25344E-03   -0.12622E-05
   143    0.47582E+04    0.12298E+01    0.00000E+00   -0.51042E+02    0.70834E-07    0.25121E-03   -0.12532E-05
   144    0.47967E+04    0.12275E+01    0.00000E+00   -0.51243E+02    0.70390E-07    0.24901E-03   -0.12439E-05
   145    0.48350E+04    0.12249E+01    0.00000E+00   -0.51418E+02    0.69950E-07    0.24684E-03   -0.12344E-05
   146    0.48734E+04    0.12215E+01    0.00000E+00   -0.51569E+02    0.69513E-07    0.24469E-03   -0.12248E-05
   147    0.49113E+04    0.12178E+01    0.00000E+00   -0.51693E+02    0.69080E-07    0.24256E-03   -0.12149E-05
   148    0.49491E+04    0.12134E+01    0.00000E+00   -0.51792E+02    0.68651E-07    0.24046E-03   -0.12048E-05
   149    0.49868E+04    0.12086E+01    0.00000E+00   -0.51865E+02    0.68226E-07    0.23838E-03   -0.11945E-05
   150    0.50242E+04    0.12033E+01    0.00000E+00   -0.51908E+02    0.67804E-07    0.23631E-03   -0.11841E-05
   151    0.50614E+04    0.11976E+01    0.00000E+00   -0.51927E+02    0.67386E-07    0.23427E-03   -0.11734E-05
   152    0.50982E+04    0.11912E+01    0.00000E+00   -0.51917E+02    0.66972E-07    0.23225E-03   -0.11625E-05
   153    0.51349E+04    0.11845E+01    0.00000E+00   -0.51878E+02    0.66561E-07    0.23024E-03   -0.11515E-05
   154    0.51713E+04    0.11773E+01    0.00000E+00   -0.51812E+02    0.66154E-07    0.22825E-03   -0.11403E-05
   155    0.52075E+04    0.11697E+01    0.00000E+00   -0.51718E+02    0.65750E-07    0.22629E-03   -0.11289E-05
   156    0.52432E+04    0.11617E+01    0.00000E+00   -0.51595E+02    0.65350E-07    0.22434E-03   -0.11173E-05
   157    0.52789E+04    0.11533E+01    0.00000E+00   -0.51442E+02    0.64953E-07    0.22241E-03   -0.11056E-05
   158    0.53142E+04    0.11446E+01    0.00000E+00   -0.51261E+02    0.64560E-07    0.22050E-03   -0.10937E-05
   159    0.53491E+04    0.11353E+01    0.00000E+00   -0.51050E+02    0.64170E-07    0.21860E-03   -0.10817E-05
   160    0.53838E+04    0.11258E+01    0.00000E+00   -0.50809E+02    0.63783E-07    0.21673E-03   -0.10695E-05
   161    0.54182E+04    0.11160E+01    0.00000E+00   -0.50539E+02    0.63400E-07    0.21487E-03   -0.10572E-05
   162    0.54522E+04    0.11058E+01    0.00000E+00   -0.50240E+02    0.63021E-07    0.21304E-03   -0.10447E-05
   163    0.54861E+04    0.10953E+01    0.00000E+00   -0.49910E+02    0.62644E-07    0.21122E-03   -0.10321E-05
   164    0.55194E+04    0.10845E+01    0.00000E+00   -0.49551E+02    0.62271E-07    0.20942E-03   -0.10194E-05
   165    0.55525E+04    0.10734E+01    0.00000E+00   -0.49160E+02    0.61901E-07    0.20764E-03   -0.10065E-05
   166    0.55853E+04    0.10622E+01    0.00000E+00   -0.48739E+02    0.61534E-07    0.20588E-03   -0.99354E-06
   167    0.56178E+04    0.10506E+01    0.00000E+00   -0.48289E+02    0.61171E-07    0.20413E-03   -0.98044E-06
   168    0.56498E+04    0.10389E+01    0.00000E+00   -0.47807E+02    0.60811E-07    0.20240E-03   -0.96723E-06
   169    0.56814E+04    0.10270E+01    0.00000E+00   -0.47294E+02    0.60454E-07    0.20070E-03   -0.95391E-06
   170    0.57126E+04    0.10150E+01    0.00000E+00   -0.46751E+02    0.60100E-07    0.19901E-03   -0.94049E-06
   171    0.57434E+04    0.10029E+01    0.00000E+00   -0.46175E+02    0.59749E-07    0.19733E-03   -0.92698E-06
   172    0.57737E+04    0.99064E+00    0.00000E+00   -0.45568E+02    0.59401E-07    0.19568E-03   -0.91337E-06
   173    0.58034E+04    0.97825E+00    0.00000E+00   -0.44930E+02    0.59057E-07    0.19405E-03   -0.89968E-06
   174    0.58328E+04    0.96602E+00    0.00000E+00   -0.44262E+02    0.58715E-07    0.19243E-03   -0.88590E-06
   175    0.58617E+04    0.95364E+00    0.00000E+00   -0.43561E+02    0.58377E-07    0.19083E-03   -0.87205E-06
   176    0.58900E+04    0.94135E+00    0.00000E+00   -0.42828E+02    0.58041E-07    0.18925E-03   -0.85812E-06
   177    0.59179E+04    0.92908E+00    0.00000E+00   -0.42066E+02    0.57708E-07    0.18768E-03   -0.84412E-06
   178    0.59453E+04    0.91705E+00    0.00000E+00   -0.41271E+02    0.57379E-07    0.18613E-03   -0.83005E-06
